Property Package: Peng-Robinson
Binary equilibrium plot
XY Plot: Pressure: 101.324996582814 kPa
9/3/2023 9:56:36 PM
Components: Benzene, Toluene


Data table:
x Benzene (mole)   y Benzene (mole)     Encountered errors
0                  0                    
0.02               0.0440343248280482   
0.04               0.0861786157550518   
0.06               0.126525605750356    
0.08               0.165156795140368    
0.1                0.202171069612484    
0.12               0.237660453773301    
0.14               0.271676011661324    
0.16               0.304327539239495    
0.18               0.335669082936509    
0.2                0.36577554106025     
0.22               0.394696771878863    
0.24               0.422481660616919    
0.26               0.449205407152271    
0.28               0.47492293472694     
0.3                0.499674939591924    
0.32               0.523500464028018    
0.34               0.546465990023484    
0.36               0.568590216663409    
0.38               0.589914568649032    
0.4                0.610494324947574    
0.42               0.630353595540713    
0.44               0.649517056278831    
0.46               0.668028604569328    
0.48               0.685917686257382    
0.5                0.703203286996593    
0.52               0.719917180821081    
0.54               0.736084695773035    
0.56               0.751729853518532    
0.58               0.766875446566389    
0.6                0.781543110567808    
0.62               0.795753392023707    
0.64               0.809533887868608    
0.66               0.822886878067138    
0.68               0.835838204298845    
0.7                0.84840465632575     
0.72               0.860602211048199    
0.74               0.872446079666151    
0.76               0.883950752590372    
0.78               0.895130044250071    
0.8                0.90599712266795     
0.82               0.916564551882201    
0.84               0.926844325436083    
0.86               0.936847886934497    
0.88               0.94658617821987     
0.9                0.95607010655835     
0.92               0.965308644391932    
0.94               0.974311930112719    
0.96               0.983089133419273    
0.98               0.991648993218744    
1                  1                    
